RetentionTime	Intensity
0.0184516666666667	528339960.501953
0.0316766666666667	428689119.007813
0.05788	292012963.0625
0.084615	165605174.771484
0.11142	102076841.05957
0.138343333333333	64254167.84375
0.165041666666667	48032525.4516602
0.191483333333333	36261672.8955078
0.219615	25629654.0205078
0.246228333333333	19740193.9692383
0.273911666666667	17480495.1687012
0.302295	14233618.1196289
0.327281666666667	12847756.6855469
0.354681666666667	12446733.4125977
0.381255	12798380.4221191
0.408075	11217881.7856445
0.436046666666667	10236627.8540039
0.461116666666667	9676704.77319336
0.48901	8512774.97460938
0.515608333333333	8552898.24047852
0.542495	10187951.5822754
0.568986666666667	9433499.48046875
0.595728333333333	10198706.5175781
0.622271666666667	10772740.9455566
0.64785	14087782.4006348
0.674481666666667	16204575.611084
0.701836666666667	18655719.1933594
0.726081666666667	24554043.0080566
0.754915	29544915.1079102
0.778361666666667	34591339.3671875
0.804703333333333	44650026.7363281
0.832946666666667	54963483.2504883
0.858873333333333	64582577.6325684
0.885346666666667	85775995.7167969
0.911215	90368265.5395508
0.937545	111520543.233398
0.964031666666667	127486408.279297
0.990891666666667	149677538.291992
1.017165	181368450.944336
1.04395	198846268.844727
1.07062166666667	200220937.849609
1.09786833333333	222904688.214844
1.123395	251193892.676758
1.150605	272558053.761719
1.17674666666667	305537812.878906
1.202255	320453758.591797
1.22941166666667	345194324.306641
1.25638333333333	369499918.816406
1.282805	375761115.894531
1.30923333333333	377112750.361328
1.33476	385080325.673828
1.36210166666667	387732127.355469
1.38894	415333909.335938
1.41562666666667	384272788.541016
1.44239	403886604.658203
1.468465	408346739.464844
1.49397666666667	429061761.197266
1.520475	430010104.003906
1.54679166666667	452370803.373047
1.57428	475605531.638672
1.60055666666667	445747936.283203
1.62758833333333	482571168.597656
1.65414333333333	536912615.058594
1.67960833333333	557588266.898438
1.706595	606228958.728516
1.732705	604121971.355469
1.75996333333333	661101625.957031
1.78581166666667	687011966.679688
1.81292666666667	711435842.960938
1.83982166666667	705168528.457031
1.86574333333333	745664980.335938
1.89243666666667	808058175.449219
1.91830666666667	852597896.523438
1.94582	874914002.726563
1.97218333333333	952804243.527344
1.99827	978480172.113281
2.02460166666667	1037662253.625
2.05155	1061918765.89844
2.07811666666667	1174286450.58984
2.10423166666667	1214138452.48828
2.13003166666667	1324524689.58594
2.15800166666667	1360281473.07813
2.18436333333333	1432360646.8125
2.210505	1484322958.65625
2.23685	1624458761.11719
2.26362833333333	1729789319.46875
2.29043833333333	1827766358.76563
2.31696166666667	1948342659.78906
2.34296833333333	2061568934.69531
2.36941666666667	1984917370.84375
2.39529666666667	2141143784.29688
2.421795	2149589685.53125
2.44945666666667	2077647227.10156
2.474575	1983273932.36719
2.50159666666667	2029617429.98438
2.528715	1896195968.91406
2.55417833333333	1952352157.44531
2.58125666666667	1855809605.55469
2.60800333333333	1827044301.39063
2.63508666666667	1748659760.67188
2.66173333333333	1737089141.55469
2.68732166666667	1852420085.88281
2.71327666666667	1890364983.41406
2.74013666666667	1791616898.27344
2.76649333333333	1938602754.21094
2.79331333333333	1990675756.63281
2.82013333333333	2058111284.05469
2.84618	2138943955.66406
2.872315	2244978527.42188
2.898365	2369443115.03906
2.925565	2539737174.125
2.95139666666667	2625155789.875
2.97829	2890981012.71875
3.00488166666667	2938210760
3.03168166666667	3093941093.59375
3.05778166666667	3164299214.53906
3.08473666666667	3182193019.90625
3.11086333333333	3288634612.1875
3.13781166666667	3217610836
3.16417666666667	3449330710.33594
3.19056166666667	3451863582.40625
3.21781833333333	3351539858.04688
3.24407833333333	3373781043.1875
3.27076	3354820938.03125
3.297105	3460889018.70313
3.32380833333333	3361350008.15625
3.35001666666667	3132019596.95313
3.37678	3388668529.26563
3.40217833333333	3529663122.90625
3.42953333333333	3199346548.875
3.45586166666667	3314938648.92188
3.48252333333333	3291817810.48438
3.508295	3220095548.01563
3.53496666666667	3132087877.32813
3.56186166666667	3074605717.64063
3.58794833333333	3137875950.20313
3.61425833333333	3166127059.875
3.64149833333333	3000353226.60938
3.66647	3120175954.21875
3.69432	3070192226.82813
3.72067333333333	3083875701.09375
3.74731333333333	3052873687.17188
3.77417333333333	2984574516.64063
3.80002166666667	2989361562.46875
3.82627666666667	2996699385.48438
3.852395	3021689089.125
3.87944833333333	2884203571.125
3.90519166666667	3112133138.21875
3.93235833333333	3047179851.35938
3.95890333333333	3134149902.07813
3.98553333333333	3139279338.46875
4.01155166666667	3309246603.14063
4.03870833333333	3339168094.92188
4.06432333333333	3333873786.04688
4.09160666666667	3296741865.98438
4.11786666666667	3277751038.90625
4.14444666666667	3377104460.39063
4.17076166666667	3368395267.89063
4.198725	3477497611.25
4.22366166666667	3664605259.67188
4.25021166666667	3593567204.59375
4.27732833333333	3524520375.40625
4.30382	3405919759.92188
4.32950833333333	3414660124.60938
4.35582	3360535298.65625
4.38253	3316825994.95313
4.40872166666667	3136100425.76563
4.43609	3105555672.32813
4.46229166666667	3181603278.32813
4.48901	3004296317.90625
4.51500166666667	3160002503.34375
4.54190833333333	3076227854.53125
4.56785	3023847402.25
4.59495666666667	3109942672.57813
4.62093833333333	3084578530.70313
4.64799166666667	3004254133.0625
4.674765	3132285169.98438
4.70071333333333	3090758556.70313
4.72722	3217234471.10938
4.75322666666667	3238249648.85938
4.780765	3094772647.875
4.80643166666667	2996246593.04688
4.83327166666667	2968178581.71875
4.85988166666667	2967084639.6875
4.88677666666667	2998351808.10938
4.91273833333333	2877320719.29688
4.93932333333333	2810942647.54688
4.96554666666667	2792188763.79688
4.99170166666667	2894309960.875
5.01877	3096117718.375
5.04540666666667	3007097922.53125
5.071435	3186527119.15625
5.09888	3288932649.76563
5.12488166666667	3489478769.14063
5.15081833333333	3586639013.42188
5.17802666666667	3751095601.21875
5.204025	3620779077.625
5.23080333333333	3840835005.625
5.25717	3939729557.6875
5.28327	4001505280.54688
5.31023666666667	3821462400.73438
5.33721	3904043511.1875
5.36296	3982827704.92188
5.38999	3942234015.25
5.41631333333333	3860628919.96875
5.44274	3627615860.71875
5.469405	3510814366.3125
5.49565	3587542559.14063
5.52247	3470445924.84375
5.548485	3343678901.76563
5.57535166666667	3323597539.79688
5.60189833333333	3338769632.29688
5.62799833333333	3264740663.03125
5.65483333333333	3415393698.4375
5.68154833333333	3197938450.60938
5.70780333333333	3332389555.53125
5.73335666666667	3243612354.5
5.76008833333333	3253253235.14063
5.78689666666667	3274251521.60938
5.813875	3441770999.78125
5.83965833333333	3417725233.59375
5.866825	3486396851.875
5.89352166666667	3483071462.14063
5.919495	3456780528.875
5.94657833333333	3350490977.54688
5.97236833333333	3353834701.40625
5.99892333333333	3165647183.35938
6.02539	3417443264.98438
6.05221833333333	3366214179.40625
6.07814666666667	3300490924.375
6.10469333333333	3280882060.09375
6.13216	3234416270.15625
6.15849333333333	3326888179.07813
6.18468	3253262048.64063
6.21142833333333	3444218046.73438
6.237675	3381517836.90625
6.26355166666667	3584161795.70313
6.290265	3622010695.85938
6.317355	3744858563.01563
6.34369333333333	3831985230.21875
6.36907166666667	3906229835.48438
6.39620333333333	3848258476.78125
6.42295833333333	4028623399.82813
6.449975	3957614540.71875
6.47579166666667	3940117612.65625
6.502025	3855825348.01563
6.52971	3923242413.85938
6.55502	3735347666.01563
6.58120833333333	3912975861.34375
6.60832	3781561491.9375
6.63457333333333	3833998239.89063
6.66203166666667	3972980629.75
6.68860833333333	3752348137.46875
6.714845	3579023977.53125
6.74103833333333	3589346796.42188
6.76662333333333	3713147428.04688
6.79381	3570652803.54688
6.82013333333333	3793372879.96875
6.84671833333333	3728383412.79688
6.87354166666667	3802533567.01563
6.90057666666667	3697723226.78125
6.926505	3970682445.29688
6.95346166666667	4082311215.45313
6.97963333333333	4161830710.5
7.00579833333333	3907848860.04688
7.03350166666667	3979633768.59375
7.05909666666667	3896700704.21875
7.08600166666667	3818672973.20313
7.11263333333333	3751140327.26563
7.13869833333333	3803627154.51563
7.164955	3880952995.35938
7.19151333333333	3748834491.57813
7.217935	3633393911.01563
7.24449666666667	3559635806.64063
7.270365	3637630512.98438
7.29828166666667	3550162070.40625
7.32414833333333	3641268912.76563
7.34994166666667	3371608796.28125
7.37681666666667	3475757275.70313
7.40316	3510723387.73438
7.43007666666667	3399965432.01563
7.456165	3408421034.57813
7.48336166666667	3529800653.34375
7.50900333333333	3422559926.01563
7.53572333333333	3440168902.29688
7.56328	3689521017
7.58916833333333	3645162316.60938
7.615695	3655131295.15625
7.64155333333333	3734901115.39063
7.66900666666667	3706325786.0625
7.69499	3695503141.45313
7.721815	3645207031.25
7.74680666666667	3796885943.375
7.77480166666667	3910253308.60938
7.80179	3872310008.28125
7.82775	3879621383.34375
7.85361333333333	3899145401.29688
7.88016	3794832440.14063
7.90759833333333	3891062986.5
7.93412333333333	3752464938.89063
7.96028666666667	3923495374.60938
7.98679833333333	3724311886.5
8.01366666666667	3731327568.14063
8.03852333333333	3658047769.95313
8.06638833333333	3518976440.89063
8.09248166666667	3543638795.20313
8.118465	3532710351.9375
8.14461333333333	3436528839.46875
8.172145	3474189301.01563
8.197945	3196195298.57813
8.22484	3560494631.98438
8.25146833333333	3282691315.375
8.27788166666667	3400017512.40625
8.30427666666667	3552526759.875
8.330805	3449764662.95313
8.35805	3764427512.64063
8.38361166666667	3730616880.07813
8.41057833333333	3796268282.39063
8.43672166666667	3842231227.5
8.46318	3915186866.04688
8.49039166666667	3864554442.82813
8.51596	3840982196.4375
8.54266666666667	3809515201.1875
8.56935333333333	3798151847.32813
8.59493	3832966873.79688
8.622055	3857310345.64063
8.64923666666667	3888820796.90625
8.67486	3762276498.01563
8.70126166666667	3660000113.82813
8.72827333333333	3705020718.9375
8.75379666666667	3565735366.95313
8.78105	3576442363.35938
8.80757833333333	3675935476.625
8.83382666666667	3615076614.04688
8.86068666666667	3580859075.96875
8.88662166666667	3731186904.1875
8.91423666666667	3806360820.75
8.9404	3821501623.9375
8.96718	3864147174.03125
8.99365	3737656027.82813
9.01913333333333	4070117354.15625
9.04583166666667	3855993175.95313
9.07267166666667	3768108916.03125
9.09850833333333	4148149095.0625
9.125165	4204330224.45313
9.15216833333333	4359544631
9.178295	4645478011.70313
9.20466	4373854733.5
9.23224833333333	4387963976.98438
9.25851333333333	4458416222.54688
9.28467666666667	4344288261.39063
9.31141	4337459468.95313
9.337715	4297963762.375
9.36469833333333	4175686471.01563
9.39148166666667	4153140827.01563
9.41785	3930390181
9.443695	4109836296.125
9.47017	4097355103.3125
9.496715	4134170057.70313
9.52296666666667	4092267028
9.55014666666667	4020782870.5625
9.57671	4287620969.46875
9.603555	4429237110.26563
9.63042333333333	4362012329.65625
9.65616666666667	4244440622.8125
9.68203166666667	4454256744.29688
9.707835	4461200987.79688
9.73403666666667	4461455519.79688
9.76192	4415280602.48438
9.78755166666667	4318922049.25
9.81484833333333	4216112131.25
9.84099166666667	4147198587.40625
9.867705	4386511317.34375
9.89484166666667	4410769327.375
9.92052166666667	4157857139.48438
9.946605	4220038624.875
9.97261833333333	4176188627.35938
9.99918666666667	4060389008.75
10.02704	4080831743.54688
10.052305	4254791487.14063
10.0800183333333	4055332539.15625
10.1064533333333	4324010033.59375
10.1329666666667	4402146702.21875
10.15877	4442104742.95313
10.184745	4704769468.70313
10.211365	4370138573.82813
10.2386533333333	4526405198.34375
10.2650716666667	4615059176.07813
10.2908516666667	4571933555.64063
10.3178716666667	4478563035.54688
10.34459	4367288081.32813
10.37129	4550594499.64063
10.3972633333333	4528657553.48438
10.42432	4445807249.8125
10.450985	4437564549.25
10.477125	4300296489.375
10.5034016666667	4160163123.71875
10.53113	4223576727
10.5567383333333	4023045212.10938
10.582395	3940550499.90625
10.6099866666667	3808640824.89063
10.636325	3989175231.76563
10.6625516666667	4120496819.59375
10.68911	3713181960.23438
10.7159683333333	4005928203.01563
10.7412533333333	4016775179.14063
10.7679316666667	3973440291.21875
10.7957116666667	4006773377.1875
10.821535	3843111632.73438
10.84774	3878889966.4375
10.8739416666667	3899853907.60938
10.9009083333333	3835201818.53125
10.9274516666667	4144823679.84375
10.95382	4223904351.625
10.9796416666667	4278924851.78125
11.0069666666667	4336875201.39063
11.03365	4199089663.64063
11.0604016666667	4263978232.28125
11.087555	4118474293.125
11.11311	4236135146.625
11.1394316666667	4048788929.32813
11.1658983333333	4217296790.39063
11.1923016666667	4138116665.25
11.2186283333333	4192169062.0625
11.2458383333333	4312998038.14063
11.2715033333333	4381039884.60938
11.2985616666667	4422503048.03125
11.32536	4360295009.07813
11.3518616666667	4551875797.42188
11.378615	4584187183.9375
11.4053666666667	4549694668.25
11.4321566666667	4544679472.125
11.4574983333333	4470937573.9375
11.4833916666667	4334467476.21875
11.5103983333333	4207276681.28125
11.5361133333333	4355025969.625
11.56297	4187425620.28125
11.590395	4150604938.1875
11.6169216666667	4132497532.89063
11.6426133333333	4187399607.76563
11.6691533333333	4135060129.45313
11.696045	4077042483.35938
11.72214	4050893038.01563
11.7481266666667	4311681379.46875
11.775205	4209075952.82813
11.801525	4343349960.84375
11.8291	4065964801.17188
11.8543566666667	4463056707.21875
11.8808683333333	4235147967.45313
11.9079833333333	4280615334.625
11.9351083333333	4376902381.48438
11.9608883333333	4525162005.25
11.98714	4553715449.32813
12.01444	4722711847.21875
12.039565	5021870809.73438
12.0668316666667	5076558040.28125
12.0933583333333	5102913943.92188
12.1203216666667	5041727438.28125
12.1473666666667	5260829627.70313
12.1724116666667	5285172605.98438
12.199405	5234190721.10938
12.226645	5448445350.4375
12.2526716666667	5202181261.25
12.2792533333333	5147855124
12.3053116666667	5153894064.0625
12.3315166666667	4920358547.39063
12.3588766666667	4923905752.95313
12.384485	5012706293.98438
12.4116583333333	4854331338.70313
12.4378433333333	4867358595.375
12.46525	4810156627.04688
12.4906116666667	4613137825.60938
12.517465	4691122185.39063
12.543145	4591528862.01563
12.5707083333333	4602583956.10938
12.5970683333333	4562678870.57813
12.6234883333333	4324467416.25
12.650985	4386404742.14063
12.675775	4436681989.125
12.7024866666667	4366007973.48438
12.7289566666667	4487958810.46875
12.7550883333333	4793903443.04688
12.7826266666667	4595671760.6875
12.8093383333333	4734728404.54688
12.8345283333333	4900889097.42188
12.862275	4649184195.17188
12.8880316666667	4624867198.125
12.91399	4833831089.98438
12.9415583333333	4758360060.76563
12.9678883333333	4932624663.125
12.9944016666667	4887433443.20313
13.0205266666667	4984556744.10938
13.0475983333333	4786318496.92188
13.0741583333333	4878677744.23438
13.1002266666667	5022613230.32813
13.1271	5033311520.34375
13.1531183333333	4951207896.04688
13.1797016666667	5079013174.84375
13.20585	5132701625.73438
13.23268	4987494763.28125
13.260785	4949259453.53125
13.2855316666667	4885663542.15625
13.3118233333333	5058849302.15625
13.3387216666667	5280038898.10938
13.3653833333333	5141818651.48438
13.3922333333333	5289921101.4375
13.4188883333333	5555383033.73438
13.4453266666667	5125268662.29688
13.4709166666667	5331789216.78125
13.49813	5435106596.95313
13.5242516666667	5507157612.5
13.5511983333333	5705015867.28125
13.577385	5726857458.0625
13.604065	5643842347.3125
13.6306	5722612395.0625
13.6574216666667	5661339929.9375
13.68323	5434709414.03125
13.7105833333333	5635898228.71875
13.7369033333333	5566624128.3125
13.76311	5459785003.625
13.7894083333333	5538391557.3125
13.8161666666667	5237144708.1875
13.8421866666667	5794976310.15625
13.86905	5503360916.07813
13.89529	5396238784.54688
13.92116	5646430670.85938
13.9485016666667	5713864611.59375
13.9746633333333	5722636192.34375
14.00162	5592343468.26563
14.02756	5557314927.95313
14.0538583333333	5430603496.3125
14.0807333333333	5596572576.73438
14.10759	5486124173.71875
14.1338983333333	5500542497.39063
14.1611216666667	5471900913.64063
14.18713	5443757921.875
14.2132516666667	5694814388.46875
14.2396516666667	5437087514.51563
14.26641	5423158061.15625
14.293295	5593932553.29688
14.3192683333333	5420233546.57813
14.3457383333333	5608439675.92188
14.3718716666667	5535327899.5625
14.3996166666667	5526534064.92188
14.4258916666667	5450483787.89063
14.45126	5311709481.76563
14.4784883333333	5475798279.64063
14.504675	5352638555.28125
14.5316783333333	5458795165.23438
14.5577933333333	5599899878.76563
14.5839933333333	5593195557.57813
14.6106516666667	5370481028.65625
14.637145	5481120907.17188
14.663665	5336624589.85938
14.69006	5439139967.96875
14.717155	5591601409.10938
14.74297	5524851982.01563
14.7686866666667	5561271976.8125
14.79599	5470718938.46875
14.8223616666667	5544074047.07813
14.84937	5309182639.35938
14.874405	5428789176.25
14.902625	5161494780.75
14.9287	5338185761.75
14.9545066666667	5359549186.0625
14.9820516666667	5162911753.26563
15.0081633333333	5198800778.73438
15.0348333333333	5222522261.6875
15.06077	4838348157.71875
15.0871283333333	5150414916.26563
15.1135683333333	5022720896.98438
15.1397183333333	5159511591.875
15.1670833333333	5018837366.20313
15.1933116666667	5115674207.45313
15.2203383333333	5347582336.32813
15.24673	5277449811.98438
15.27319	5210578935.375
15.2997716666667	5266023816.39063
15.3264416666667	5271660462.96875
15.3527316666667	5219078560.60938
15.3787416666667	4895140924.26563
15.4053216666667	5159970355.40625
15.432955	5141737176.8125
15.4583683333333	5285611780.29688
15.48543	5033331745.23438
15.5109483333333	5076301223.28125
15.5376716666667	5103053280.90625
15.564895	5051917356.98438
15.591005	5107142120.48438
15.6176466666667	5174563325.40625
15.6429266666667	5038473065
15.6696216666667	4958991410.17188
15.6971066666667	4909338193.35938
15.7231366666667	4843715408.03125
15.74995	4589021411.59375
15.7760016666667	4801904689.48438
15.8030733333333	4898234071.5625
15.8295433333333	4883473034.09375
15.8558283333333	4899220780.57813
15.8822883333333	5043769330.21875
15.9095033333333	4937125926.78125
15.9358066666667	5146142427.28125
15.962545	5153050841.125
15.9889516666667	5121013099.45313
16.014715	5240054496.42188
16.0415583333333	5258344390.875
16.068155	5333424888.8125
16.0942616666667	5099386882.71875
16.1204983333333	5276616888.53125
16.1473683333333	5160017671.90625
16.1730383333333	5116283346.17188
16.2002083333333	5218081342.23438
16.2267083333333	5076358976.51563
16.2529966666667	5376341092.82813
16.2799783333333	5063184449.28125
16.3060833333333	4917726030.26563
16.3334433333333	4904265689.51563
16.3596883333333	4958044847.34375
16.3856866666667	4857871407.07813
16.41213	5103055941.4375
16.4388083333333	5053885682.51563
16.465675	5021896168.0625
16.49165	4976560817.25
16.518345	5089149792.01563
16.54505	5046630305.96875
16.571735	5325354386.45313
16.598175	5199391637.98438
16.6245683333333	5343911933.125
16.6507883333333	5354401985.65625
16.677625	5324099435.125
16.7044283333333	5288806311.875
16.7297816666667	5373812656.89063
16.75696	5290803798.4375
16.7835666666667	5495141548.65625
16.8092383333333	5125207476.89063
16.836665	5192356823.20313
16.8619383333333	5276623141.32813
16.8891566666667	5404471726.9375
16.9156466666667	5273236547.46875
16.9417683333333	5332326929.53125
16.9686716666667	5158758218.85938
16.99573	5526718449.42188
17.0215083333333	5485281456.95313
17.047895	5383155255.85938
17.074235	5638313006.01563
17.100505	5464283913.25
17.1269866666667	5467953726.3125
17.1543183333333	5399358090.79688
17.18133	5423679970.78125
