RetentionTime	Intensity
0.0181983333333333	671997597.714844
0.0310683333333333	517541630.130859
0.05778	374304522.701172
0.0842316666666667	188970220.450684
0.111421666666667	123672988.085938
0.137931666666667	63801986.8461914
0.164733333333333	42051789.2207031
0.192548333333333	28246830.5996094
0.218225	21934419.8327637
0.246385	14943167.513916
0.273305	11696276.5041504
0.300066666666667	10264413.0766602
0.327188333333333	9529591.96679688
0.353728333333333	9119836.16381836
0.380636666666667	8784202.44897461
0.408571666666667	7990765.94042969
0.434181666666667	7442091.6105957
0.461698333333333	6820399.4465332
0.48883	6630731.80883789
0.514905	6330552.08911133
0.542421666666667	6028269.77783203
0.568801666666667	7215061.08105469
0.595603333333333	6083060.85327148
0.622038333333333	6074273.39550781
0.648678333333333	5873607.89404297
0.67553	6454715.97192383
0.702038333333333	6474713.69335938
0.728525	6480275.8527832
0.75514	6664071.06860352
0.782178333333333	6569004.1706543
0.808818333333333	6073007.73681641
0.834998333333333	6205543.37548828
0.861636666666667	5398752.27612305
0.888741666666667	5978607.05761719
0.90702	9374571.87060547
0.941771666666667	9063989.9296875
0.968308333333333	9059844.97753906
0.995088333333333	8944592.91870117
1.02181166666667	8680100.83984375
1.04819166666667	8236763.45776367
1.07499833333333	8468095.85473633
1.10156666666667	9407269.48095703
1.12825333333333	10098427.6848145
1.15480333333333	10122171.2255859
1.18178333333333	10237184.440918
1.20771333333333	13111388.5126953
1.23199666666667	15029868.8210449
1.259455	18880692.5170898
1.28648	22921737.0290527
1.311125	26712060.34375
1.33766	34024441.197998
1.36434666666667	36022443.5014648
1.39234166666667	42984550.1750488
1.41754333333333	52675392.3505859
1.44427833333333	56784645.9282227
1.47081	63326808.1123047
1.49704833333333	72784581.6977539
1.523315	83256823.5820313
1.55011833333333	85060761.9799805
1.57697166666667	91866286.546875
1.60391333333333	98240138.0541992
1.62956333333333	103683450.657715
1.65633833333333	108090564.147949
1.68367333333333	121401182.46582
1.71029	126419629.483887
1.736865	128491642.008301
1.763295	137930553.349609
1.78968	148939038.592285
1.81599166666667	153347792.211914
1.84256833333333	167159917.240234
1.86883	152046213.552246
1.896395	175305900.644043
1.92209833333333	171746462.910156
1.94898833333333	193233284.276367
1.97566	182516280.701172
2.00144166666667	246087914.74707
2.0289	202064616.84375
2.05614833333333	207636530.045898
2.08344	209541595.427734
2.10857666666667	205966372.539063
2.135645	211219996.519531
2.16246833333333	209639100.374023
2.189405	250741622.40332
2.21534166666667	233143485.426758
2.24114	215972586.234375
2.26782166666667	248733916.083984
2.29463166666667	232238777.676758
2.32063	228500823.106445
2.34644	238267680.119141
2.374095	273673620.804688
2.39958333333333	247061135.380859
2.42655666666667	241756282.748047
2.45379333333333	217993609.414063
2.47965333333333	246466204.985352
2.50601833333333	235068688.624023
2.532715	262158467.714844
2.55926166666667	236556793.59668
2.58569333333333	243960191.212891
2.61283666666667	264653556.395508
2.63940666666667	249519318.673828
2.66589666666667	255342003.976563
2.69295166666667	272973066.84082
2.718925	270603420.928711
2.745355	293684836.904297
2.77185333333333	310617079.697266
2.79783833333333	288204771.126953
2.82467666666667	337886721
2.85138333333333	332813762.285156
2.87808	377174461.154297
2.90391166666667	376549576.673828
2.93053333333333	381277915.150391
2.957815	428007325.935547
2.98450333333333	439428808.966797
3.01064333333333	434016050.390625
3.03733666666667	557408439.210938
3.06263333333333	480792047.302734
3.08992	507831945.763672
3.116425	568279728.171875
3.14271166666667	532456914.990234
3.170095	552563327.326172
3.19581166666667	538892636.636719
3.22347666666667	573416454.939453
3.24967666666667	649126460.208984
3.27586	661849242.957031
3.30212833333333	677844108.359375
3.32869166666667	684005431.003906
3.354985	783667172.824219
3.38174666666667	795755727.515625
3.40862166666667	835149226.792969
3.43443	880522168.207031
3.46119	894932192.703125
3.48804166666667	945424189.320313
3.51495666666667	904618229.621094
3.54070833333333	921995136.234375
3.56813333333333	999246500.007813
3.59398	972346476.996094
3.62025833333333	1041934654.15625
3.64696833333333	1000622000.62109
3.67392	1074645445.35156
3.70050166666667	1163005047.85547
3.72663666666667	1178802941.30469
3.75310166666667	1184147536.125
3.77943666666667	1277963505.03516
3.80548	1402174711.69922
3.83167166666667	1527475362.08984
3.85862166666667	1585972932.86719
3.88547833333333	1583604689.83203
3.91159333333333	1784072673.17188
3.93753166666667	1677635939.82031
3.96515333333333	1726404806.52734
3.991575	1772099265.35156
4.01808	1637437629.01172
4.04513166666667	1629101065.07031
4.070975	1626694287.5
4.09647166666667	1522116071.28125
4.12361166666667	1529933094.4375
4.15029666666667	1433243014.66406
4.176545	1353176370.15234
4.20315166666667	1338640163.76953
4.229545	1341132203.29688
4.25582833333333	1371247581.70703
4.28255833333333	1392057293.47266
4.30937666666667	1330536614.48438
4.33588166666667	1356343780.43359
4.36212333333333	1373532938.46094
4.38865333333333	1371936917.32813
4.41516833333333	1408431195.07031
4.44220333333333	1493519462.75781
4.46783666666667	1542217914.05469
4.494645	1500294388.23438
4.52027666666667	1571799359.26563
4.54745	1631834742.54688
4.57453833333333	1666567227.69531
4.60026666666667	1738669190.77344
4.62665333333333	1780143257.98438
4.65323666666667	1772574892.21875
4.679695	1750561122.78906
4.7063	1877996413.35938
4.73268166666667	1978050406.86719
4.75899833333333	1987292380.48438
4.78608666666667	2005386019.125
4.81179166666667	2001399555.39063
4.83889333333333	2139366401.20313
4.86615166666667	2284316007.64844
4.89207666666667	2212568391.89844
4.91931333333333	2242302416.22656
4.94506666666667	2288052692.03906
4.97142833333333	2305882242.29688
4.99771333333333	2413968451.04688
5.02486666666667	2507480030.28125
5.05098166666667	2384860726.54688
5.07783166666667	2447801479.1875
5.103845	2581381398.82031
5.131065	2638641066.76563
5.15767333333333	2756449246.28906
5.18369166666667	2719059337.41406
5.21024333333333	2684596934.89063
5.23740666666667	2822738651.1875
5.26358	2728841821.77344
5.28996666666667	2683249560.61719
5.31617666666667	2899390132.64844
5.34319166666667	2801439532.33594
5.36979333333333	2877134174.36719
5.39649333333333	2932706805.72656
5.422235	2886534803.02344
5.44825833333333	2958354696.53906
5.47506833333333	2911343993.44531
5.50148166666667	3082827266.625
5.52768	2989852309.27344
5.55434666666667	2938209248.07813
5.58215	2768683354.25781
5.60804833333333	2938660799.94531
5.63429	2814854759.70313
5.66108833333333	2722381194.92188
5.687085	2809621087.08594
5.71368	2816610976.63281
5.73964	2716716964.39063
5.76581166666667	2710205749.39063
5.79244666666667	2649601491.55469
5.81976	2559560423.23438
5.84633166666667	2764525262.47656
5.87213666666667	2561397523.10938
5.89906166666667	2441412733.41406
5.92547666666667	2525809586.02344
5.95146333333333	2428967667.78906
5.97875333333333	2540681145.92969
6.00500333333333	2418000065.21875
6.03151833333333	2536542343.28125
6.05792666666667	2475552565.8125
6.08467333333333	2609219179.91406
6.11121666666667	2649056714.21875
6.13809166666667	2768265948.70313
6.16430833333333	2837161175.96875
6.19036333333333	2782868282.95313
6.21680166666667	2933373070.70313
6.24371	3113018873.57813
6.27084166666667	3076767484.64063
6.29649333333333	3244446293.64844
6.32345833333333	3164553568.54688
6.34961	3066403119.67969
6.37598333333333	3144535195.10156
6.402435	3037682229.92969
6.429235	3359591160.92969
6.45516833333333	3109370595.3125
6.48183166666667	3262980690.94531
6.508635	3256081556.24219
6.53477	3415327202.71875
6.5613	3384034631.04688
6.58848	3242228370.15625
6.61418	3034582073.99219
6.64018166666667	2920019032.71875
6.666655	2913800866.15625
6.69364666666667	2989066012.04688
6.72058	2909332143.51563
6.74666166666667	2801629684.65625
6.772815	2873370281.17188
6.800265	2852948681.79688
6.82643	3033177939.74219
6.85244333333333	2824834092.5625
6.87959	2760120937.45313
6.90620333333333	2924996488.70313
6.93236166666667	2751695680.95313
6.95874833333333	2744567388.89844
6.98531	2873335616.57813
7.01241166666667	2906524760.88281
7.03920166666667	2891310602.4375
7.064135	2771256791.66406
7.09136666666667	2861264376.52344
7.116685	2843621791.96875
7.14438333333333	2717953389.36719
7.170775	2787892989.36719
7.19741166666667	2637812069.95313
7.22320166666667	2744465345.96875
7.250455	2786859550.95313
7.27731333333333	2737728519.14063
7.30328666666667	2778315676.64844
7.32934333333333	2845867010.57813
7.35595166666667	2881446271.875
7.38291666666667	3015044470.57813
7.409065	3072406361.26563
7.43551833333333	2981039106.20313
7.46272333333333	2955258003.73438
7.48859166666667	3073106140.98438
7.51495166666667	3183700040.55469
7.54074333333333	3299623916.60938
7.56809833333333	3364637766.1875
7.594415	3332203764.82813
7.62075	3561598422.10938
7.64860666666667	3545005324.90625
7.67397666666667	3851204140.71875
7.70091666666667	3778403800.10938
7.72710166666667	3746038919.67188
7.75412833333333	3582355236.76563
7.78028166666667	3484906521.29688
7.80654	3723902000.40625
7.83329	3608684266.79688
7.85907666666667	3520703165.39063
7.886225	3373275533
7.91315833333333	3317273909.03125
7.939255	3086350152.54688
7.96571	3207416401.10938
7.99247166666667	3241900045.26563
8.018905	3022780248.71875
8.045935	2898933913.20313
8.07171166666667	2985120594.9375
8.09783666666667	3086587415.73438
8.12426333333333	3023695393.64063
8.151135	2989180522.20313
8.17729833333333	3017382198.35938
8.20322833333333	3115765536.40625
8.22955166666667	3041964760.39063
8.25737333333333	2981246615.5625
8.28370833333333	2993185380.09375
8.309765	3152675826.82813
8.33658166666667	3129527441.34375
8.362535	3097754290.82813
8.38939333333333	2951163509.64063
8.41585	3232678263.92188
8.44205666666667	2775122459.35938
8.468615	3043523130.40625
8.49564166666667	2889798235.20313
8.52117333333333	3139704673.07813
8.548155	2945172080.72656
8.57491333333333	3195598835.14063
8.60112166666667	3045409318.14063
8.62781333333333	3148460052.65625
8.65473166666667	3196294801.78125
8.68047333333333	3076513231.15625
8.70785166666667	3210727446.65625
8.73450666666667	3232458977.625
8.75989666666667	3334478730.65625
8.786895	3505622247.82813
8.81359	3470590143.29688
8.83957333333333	3538735280.67188
8.86662166666667	3579106133.92188
8.89313333333333	3540727600.4375
8.91940333333333	3614151969.07813
8.946555	3730589001.85938
8.97300833333333	3770579571.82813
9.00001	3670782102.67188
9.02576166666667	3961839668.64063
9.05224166666667	3735421964.9375
9.077825	3646162387.375
9.105315	3661133755.65625
9.13066	3575265819.375
9.15762333333333	3500427306.85938
9.18445	3392182303.98438
9.21090166666667	3614313492.78125
9.23704666666667	3474099604.57813
9.26388	3592030540.79688
9.28977	3510489745.39063
9.31663833333333	3612378920.65625
9.343785	3447895907.125
9.36962666666667	3459062586.4375
9.39666166666667	3714271407.9375
9.42301833333333	3549121496.78125
9.44952666666667	3596075818.0625
9.47662666666667	3658477373.23438
9.50252166666667	3729402768.84375
9.529505	3542176178.4375
9.5557	3584570276.95313
9.58242333333333	3840298884.1875
9.60894666666667	3574850206.8125
9.63454166666667	3640170463.9375
9.66078833333333	3419917963.23438
9.68815166666667	3508006072.01563
9.71436833333333	3566632127.07813
9.74074833333333	3394401957.14063
9.76752166666667	3331577812.23438
9.79435833333333	3478733923.71875
9.82101	3458491157.98438
9.84709833333333	3280804550.29688
9.87386333333333	3396630763.89063
9.89936666666667	3339453515.51563
9.92560166666667	3181746977.57813
9.95286833333333	3141373392.59375
9.98035	3103155860.78125
10.00579	3059450224.21875
10.031795	3176826973.54688
10.05817	3141606993.0625
10.085695	3396344087.39063
10.1112716666667	3339363033.82813
10.1383766666667	3166815997.9375
10.165275	3161221688.15625
10.1911333333333	3192378124.29688
10.2173783333333	3514279188.8125
10.2440216666667	3261385549.9375
10.27104	3580031053.48438
10.2976633333333	3593710380.60938
10.323605	3735367677.34375
10.3505066666667	3480177679.17188
10.3765433333333	3469636162.54688
10.4031766666667	3729418629.90625
10.4303866666667	3845093223.28125
10.4563666666667	3814179201.20313
10.482925	3594625694.51563
10.50923	3680849034.32813
10.5359833333333	3838016466.96875
10.5632783333333	3852174279.25
10.5890216666667	3556104853.51563
10.6153683333333	3564092731.54688
10.6422933333333	3529374566.95313
10.668605	3508695437.34375
10.695095	3375095449.85938
10.7215683333333	3240107850.84375
10.7477733333333	3514763965.78125
10.7740466666667	3439347179.1875
10.7997016666667	3379067937.09375
10.8270216666667	3461740511.35938
10.854295	3496853461.75
10.8806533333333	3243227885.75
10.9070566666667	3726786655.84375
10.9333733333333	3697711914.82813
10.9597166666667	3450044831.85938
10.9864733333333	3563190500.65625
11.0130183333333	3560994075.39063
11.0393983333333	3667047826.90625
11.065435	3834803725.14063
11.0925483333333	3621818132.92188
11.11818	3637408188.01563
11.1452516666667	3487883122.14063
11.171775	3521697388.1875
11.1974316666667	3658801386.57813
11.2241816666667	3869648867.45313
11.2518616666667	3469989856.21875
11.2775366666667	3812487434.48438
11.30372	3798248095.70313
11.329885	3612576948.23438
11.35739	3719555898.40625
11.383995	3465746671.5625
11.4096666666667	3443520763.71875
11.436985	3523461982.28125
11.46234	3589064244.92188
11.4899083333333	3519547920.59375
11.5157083333333	3600760142.95313
11.54249	3433296476.79688
11.568315	3580469557.25
11.5955183333333	3723084836.60938
11.6227466666667	3959395457.42188
11.648785	3819760123.73438
11.67546	4044871968.54688
11.70184	3787554986.28125
11.7286266666667	3739363452.34375
11.75457	4164412610.1875
11.781485	4234075179.9375
11.8074583333333	4159826750.79688
11.834255	4389916765.03125
11.86029	4220032544.20313
11.8869783333333	4219227563.65625
11.9147033333333	4355919736.29688
11.9406683333333	4308957461.92188
11.9669983333333	4498238572.92188
11.9935483333333	4000084565.90625
12.0196216666667	4120789255.15625
12.045835	4000089075.20313
12.0726233333333	4293318019.92188
12.0996816666667	4063509337.26563
12.1256316666667	4052066736.4375
12.1519366666667	3843470411.25
12.178635	3919103227.20313
12.2057133333333	3866020989.09375
12.2312566666667	3990130822.76563
12.2579466666667	3895154075.48438
12.2842416666667	4367338623.6875
12.3119783333333	4154130754.01563
12.33761	4284072719.64063
12.3638866666667	3984992119.0625
12.3906116666667	4249954222.65625
12.416475	4296640366.9375
12.4434566666667	4169820895.375
12.4701466666667	4213290114.73438
12.4957933333333	4376257714.64063
12.5225733333333	4142651239.53125
12.5496083333333	4361629137.89063
12.574795	4053454765
12.6021583333333	4342052158.73438
12.6287666666667	4256184687.46875
12.6549633333333	4158916570.14063
12.6820883333333	4265253658.85938
12.7080183333333	4186504196.46875
12.7341283333333	4114555436
12.7614483333333	4281600714.03125
12.78704	4154591936.53125
12.81424	4264531721.60938
12.8402466666667	4294178707.92188
12.86645	4346981690.92188
12.8941533333333	4423995285.51563
12.9198116666667	4461344509.23438
12.94618	4256326749.48438
12.9728383333333	4253723655.96875
12.9998216666667	4155188215.57813
13.0260816666667	4392103618.25
13.0523516666667	4392638681.75
13.07929	4350791594.9375
13.105735	4511684194.32813
13.1323916666667	4430932969.71875
13.158625	4475837482.6875
13.1856683333333	4311408933.75
13.2115666666667	4418586678.10938
13.23796	4172791974.6875
13.2650516666667	4195363785.5625
13.2915466666667	4102800343.32813
13.3184	4107407985.46875
13.344025	3987222183.76563
13.3708483333333	3918771472.64063
13.3974833333333	4134465850.96875
13.4238466666667	4092051196.15625
13.4506933333333	3921004579.4375
13.4769316666667	3836196831.45313
13.50292	4094270180.5
13.5298883333333	4154425038.53125
13.5557566666667	4221110697.32813
13.583215	4484065757.95313
13.60889	4257091994.04688
13.635745	3961466356.1875
13.66205	4175543809.82813
13.6886633333333	4360684223.1875
13.715065	4404728891.57813
13.7421333333333	4136354954.64063
13.7680966666667	4470571142.5
13.795035	4442578280.875
13.8212916666667	4528584630.39063
13.8482416666667	4479023640.14063
13.8745666666667	4391434791.23438
13.901085	4229995623.5625
13.92792	4656069437.20313
13.9542583333333	4226447261
13.980155	4506267511.17188
14.0067416666667	4464599926.25
14.0326066666667	4439037220.48438
14.0589383333333	4256366562.90625
14.0865183333333	4289570190.5625
14.113475	4151355576.28125
14.1389083333333	4398234232.09375
14.1662	4393489306.01563
14.19207	4373207010.92188
14.2184866666667	4201623868.82813
14.2450083333333	4552094813.17188
14.2716616666667	4480827927.70313
14.2970933333333	4894949841.48438
14.324505	4658615226.75
14.3513416666667	4786222816.65625
14.377895	4812836168.28125
14.4047433333333	5122382105.35938
14.4304	4974646748.14063
14.4572916666667	4982433361.39063
14.48379	5284351589.03125
14.5100983333333	5685907957.51563
14.5367483333333	5228008023.25
14.5635183333333	5354823151.3125
14.5894416666667	5121341244.1875
14.6167733333333	5304484932.09375
14.642435	5436162188.60938
14.669475	5126670840.07813
14.6951266666667	5721497451.35938
14.7218733333333	5332792050.76563
14.7486766666667	4894585796.34375
14.7751616666667	5112663911.73438
14.80134	5029358040.5625
14.8280483333333	5041757554.25
14.8542283333333	4962055760.4375
14.8810716666667	4620896635.60938
14.9075566666667	4958209257.48438
14.9336183333333	4828474829.0625
14.96065	4577040178.51563
14.98694	4617139576.5
15.0133483333333	4649420081.89063
15.0397533333333	4862664427.26563
15.06568	4931401453.14063
15.0926083333333	4950861524.90625
15.1199533333333	4820907651.32813
15.1468	4960886795.14063
15.17281	4998952389.29688
15.1991216666667	5235595052.35938
15.22561	5271582882.03125
15.2525566666667	5348357031.71875
15.2789916666667	5314790999.6875
15.305355	5461064871.9375
15.3321633333333	5280415130.26563
15.3578316666667	5555221206.45313
15.3845066666667	5606552387.375
15.4114066666667	5344310381.8125
15.4375566666667	5325498085.34375
15.4640283333333	5907106204.64063
15.4902933333333	5527765304.9375
15.5170616666667	5899074255.48438
15.5441783333333	5756266440.25
15.5700716666667	5448575872.01563
15.59714	5559647854.40625
15.6230816666667	5795136072.78125
15.6496766666667	5511193707.34375
15.67655	5430044906.53125
15.7026283333333	5797533634.0625
15.729695	5442679875.01563
15.75589	5447464215.70313
15.7822416666667	5513438017.89063
15.808115	5644486209.15625
15.8354066666667	5726895802.375
15.8618633333333	5817941994.17188
15.8872433333333	5791155603.09375
15.9152633333333	5420712818.42188
15.9414183333333	5597351132.29688
15.9676516666667	5388096398.07813
15.9939033333333	5456754814.60938
16.0215316666667	5756357878.53125
16.0471066666667	5580282212.26563
16.073955	5519269583.75
16.1002	5081737284.98438
16.1272066666667	5308068590.53125
16.1531733333333	5436149764.10938
16.1797	5256588298.76563
16.2056333333333	5183672942.89063
16.2327216666667	5494232335.1875
16.2592116666667	5471472230.625
16.2849483333333	5448260026.67188
16.31209	5665550077.17188
16.3383183333333	5282191309.46875
16.3643383333333	5452809663.79688
16.3917433333333	5267019737.20313
16.418345	5663431576.625
16.4454166666667	5831160736.46875
16.471055	5694725293.79688
16.4974783333333	5326670301.29688
16.5238866666667	5698206350.14063
16.55091	5591827781.54688
16.5771816666667	5863739893.60938
16.6036916666667	5606187896.75
16.6305083333333	5498323142.5625
16.6561616666667	5694860849
16.6830033333333	5672469991.84375
16.7092816666667	5460936784
16.73551	5585435180.45313
16.7629383333333	5264343600.21875
16.789755	5573519185.625
16.815805	5323364254.53125
16.842045	5408834045.71875
16.8688683333333	5998538682.75
16.8945833333333	5615317554.53125
16.9220483333333	5685739606.03125
16.947915	5423366298.35938
16.9755016666667	5617537135.71875
17.00133	5247118277.59375
